# T    Energy
0.5   -3   nan
0.55   -3   nan
0.6   -3   2.24545e-05
0.65   -3   5.56823e-05
0.7   -2.99999   7.43593e-05
0.75   -2.99998   0.000133817
0.8   -2.99997   0.00017544
0.85   -2.99992   0.00028242
0.9   -2.99985   0.000390189
0.95   -2.99973   0.000517882
1   -2.99955   0.000672611
1.05   -2.99923   0.000878263
1.1   -2.99887   0.00106762
1.15   -2.9983   0.00128949
1.2   -2.99757   0.0015787
1.25   -2.99655   0.00187979
1.3   -2.99527   0.00217712
1.35   -2.99376   0.00250331
1.4   -2.9918   0.00288255
1.45   -2.98933   0.00329883
1.5   -2.98667   0.00367491
1.55   -2.9832   0.00414718
1.6   -2.97933   0.00459687
1.65   -2.97473   0.00516581
1.7   -2.9696   0.00570933
1.75   -2.96364   0.00624727
1.8   -2.95711   0.00671056
1.85   -2.94985   0.00735088
1.9   -2.94163   0.00787343
1.95   -2.93229   0.0083779
2   -2.9225   0.00907731
2.05   -2.91134   0.00974741
2.1   -2.89968   0.0105487
2.15   -2.88653   0.0109977
2.2   -2.87256   0.0118839
2.25   -2.85778   0.0125992
2.3   -2.84131   0.0132916
2.35   -2.82447   0.0139198
2.4   -2.80632   0.0146743
2.45   -2.78727   0.0155179
2.5   -2.76634   0.016108
2.55   -2.74461   0.016675
2.6   -2.72192   0.0175963
2.65   -2.69862   0.0184215
2.7   -2.67422   0.0196206
2.75   -2.64753   0.0198982
2.8   -2.6208   0.0205302
2.85   -2.59285   0.0214022
2.9   -2.56389   0.0223417
2.95   -2.53346   0.0234511
3   -2.50278   0.0236103
3.05   -2.47111   0.0243043
3.1   -2.43953   0.025322
3.15   -2.40591   0.0256049
3.2   -2.37241   0.0266242
3.25   -2.33738   0.0271847
3.3   -2.30306   0.0278735
3.35   -2.26619   0.028255
3.4   -2.23045   0.0288699
3.45   -2.19417   0.0292838
3.5   -2.15867   0.0303376
3.55   -2.12202   0.0309618
3.6   -2.08542   0.0306498
3.65   -2.04821   0.0318157
3.7   -2.01089   0.0315681
3.75   -1.97509   0.032097
3.8   -1.93931   0.0324082
3.85   -1.90107   0.0325198
3.9   -1.86592   0.0330229
3.95   -1.83155   0.0333857
4   -1.79561   0.0329807
4.05   -1.76175   0.0333118
4.1   -1.72709   0.0341174
4.15   -1.69347   0.0339032
4.2   -1.66084   0.0335488
4.25   -1.62753   0.0338232
4.3   -1.59514   0.03398
4.35   -1.5654   0.0338237
4.4   -1.5344   0.0345114
4.45   -1.50423   0.0347171
4.5   -1.47549   0.0340928
4.55   -1.44636   0.0339602
4.6   -1.41784   0.0342856
4.65   -1.39098   0.0341742
4.7   -1.36499   0.0345512
4.75   -1.3396   0.0336339
4.8   -1.31419   0.0344414
4.85   -1.28835   0.0340992
4.9   -1.26616   0.0339135
4.95   -1.24134   0.0332939
5   -1.21881   0.0334946
5.05   -1.19723   0.0330151
5.1   -1.17627   0.0330954
5.15   -1.15514   0.033075
5.2   -1.13583   0.0336044
5.25   -1.11536   0.0323539
5.3   -1.09696   0.0324449
5.35   -1.07875   0.0326968
5.4   -1.05949   0.0319173
5.45   -1.0423   0.0322056
5.5   -1.0252   0.0318441
5.55   -1.00846   0.0315965
5.6   -0.991632   0.0312293
5.65   -0.977011   0.0312886
5.7   -0.962547   0.031421
5.75   -0.945751   0.0313087
5.8   -0.93186   0.0315446
5.85   -0.916294   0.0311805
5.9   -0.904593   0.0308465
5.95   -0.889555   0.030254
6   -0.877793   0.0306804
6.05   -0.864987   0.0299561
6.1   -0.852748   0.0303127
6.15   -0.840129   0.0304013
6.2   -0.828457   0.0300438
6.25   -0.817083   0.0295782
6.3   -0.807153   0.0293572
6.35   -0.795127   0.0294482
6.4   -0.784687   0.0296346
6.45   -0.773976   0.0292008
6.5   -0.764454   0.0289007
6.55   -0.755485   0.0287683
6.6   -0.744206   0.0290947
6.65   -0.736395   0.0283811
6.7   -0.72698   0.0286915
6.75   -0.717105   0.0283494
6.8   -0.708716   0.0283028
6.85   -0.700616   0.0282351
6.9   -0.692263   0.027837
6.95   -0.684512   0.0275772
7   -0.676118   0.0272687
7.05   -0.668139   0.0275002
7.1   -0.660602   0.027359
7.15   -0.653096   0.0269532
7.2   -0.645424   0.027064
7.25   -0.639229   0.027219
7.3   -0.632195   0.0270127
7.35   -0.625398   0.0270219
7.4   -0.619378   0.0273696
7.45   -0.611339   0.0269717
7.5   -0.605736   0.0271036
7.55   -0.598687   0.0267999
7.6   -0.593055   0.0263511
7.65   -0.587899   0.0264915
7.7   -0.580573   0.0260221
7.75   -0.575284   0.0263978
7.8   -0.569813   0.0261357
7.85   -0.563837   0.0262367
7.9   -0.559085   0.0261145
7.95   -0.553176   0.0257715
8   -0.547666   0.0258396
