# Temp     Magn. susceptibility
1   -0.0997031   5.22016e-07
1.05   -0.0948237   6.55275e-07
1.1   -0.0903563   2.13482e-06
1.15   -0.0862068   1.52837e-06
1.2   -0.0822977   2.78035e-06
1.25   -0.0786608   4.05297e-06
1.3   -0.075189   9.21153e-06
1.35   -0.0718756   1.14776e-05
1.4   -0.068594   7.7454e-06
1.45   -0.0654394   6.07834e-06
1.5   -0.0622406   7.66545e-06
1.55   -0.05925   2.20737e-05
1.6   -0.0562216   1.47575e-05
1.65   -0.0527787   2.52805e-05
1.7   -0.0497332   3.6607e-05
1.75   -0.0466257   2.99889e-05
1.8   -0.0432371   3.41936e-05
1.85   -0.0399679   4.0737e-05
1.9   -0.0358258   7.50535e-05
1.95   -0.0324434   4.65586e-05
2   -0.028169   0.000161345
2.05   -0.0246776   4.77034e-05
2.1   -0.0207012   7.42745e-05
2.15   -0.0163696   9.8693e-05
2.2   -0.0110367   0.000197938
2.25   -0.00635388   0.000225393
2.3   -0.000218169   0.000118947
2.35   0.00464436   0.000137228
2.4   0.0103396   0.000118268
2.45   0.017068   0.000259204
2.5   0.0211392   0.000106615
2.55   0.0307528   9.93632e-05
2.6   0.0367265   0.000117175
2.65   0.0432518   0.000131319
2.7   0.0500521   0.000338982
2.75   0.0568645   0.000242024
2.8   0.0698068   0.000326025
2.85   0.0778444   0.000387662
2.9   0.0833468   0.000395533
2.95   0.0959495   0.000187435
3   0.106092   0.000476599
3.05   0.116343   0.000304514
3.1   0.127084   0.000365747
3.15   0.13444   0.000218488
3.2   0.143086   0.000271265
3.25   0.154965   0.000571604
3.3   0.163201   0.00035992
3.35   0.170906   0.000767167
3.4   0.190056   0.000589405
3.45   0.19442   0.000546793
3.5   0.20936   0.000322308
3.55   0.221365   0.000229236
3.6   0.231719   0.00039494
3.65   0.235472   0.00118428
3.7   0.247067   0.000388039
3.75   0.253527   0.000507336
