# Temp     Specific Heat
1   -0.89418   1.30493e-05
1.05   -0.808136   1.56002e-05
1.1   -0.733097   4.85192e-05
1.15   -0.666345   3.32261e-05
1.2   -0.605818   5.79234e-05
1.25   -0.551745   7.94164e-05
1.3   -0.502064   0.000162495
1.35   -0.456642   0.000178932
1.4   -0.41304   0.000138177
1.45   -0.372725   9.89275e-05
1.5   -0.332967   0.000123015
1.55   -0.298008   0.000339211
1.6   -0.263624   0.000226818
1.65   -0.224981   0.000327997
1.7   -0.19323   0.000478699
1.75   -0.162074   0.000436205
1.8   -0.130071   0.000432602
1.85   -0.0999161   0.000499966
1.9   -0.0617682   0.000893438
1.95   -0.0348463   0.000578446
2   0.000179666   0.00148419
2.05   0.0260205   0.000411661
2.1   0.0542648   0.000736655
2.15   0.0821169   0.00098475
2.2   0.118352   0.00178432
2.25   0.146841   0.00191159
2.3   0.186105   0.00108683
2.35   0.2102   0.0011117
2.4   0.237019   0.000980684
2.45   0.273867   0.00172356
2.5   0.286571   0.00085418
2.55   0.334048   0.000811206
2.6   0.357236   0.000604496
2.65   0.379717   0.00110562
2.7   0.399715   0.00190458
2.75   0.423701   0.00126748
2.8   0.470212   0.00195359
2.85   0.487569   0.00154504
2.9   0.499927   0.00269712
2.95   0.534938   0.00107439
3   0.563175   0.00194454
3.05   0.587095   0.00151476
3.1   0.60947   0.00193793
3.15   0.615709   0.000930633
3.2   0.624028   0.00102478
3.25   0.648027   0.00221679
3.3   0.642976   0.00148955
3.35   0.648145   0.00233724
3.4   0.691108   0.00182521
3.45   0.673985   0.00155732
3.5   0.693608   0.00133377
3.55   0.702979   0.000798719
3.6   0.710699   0.00125522
3.65   0.703408   0.00386081
3.7   0.706692   0.000802387
3.75   0.699137   0.00126404
